Data Saved Successfully
Date and Time: 2018_12_20__10_00_05
Name: Power measurement
Description: pressure back to 0.2 barg; using dial at 85 for 45 deg; slit opened further to 1.19, PMT height 0.95", aperture 0.385"
Substance: LXe
Sample ID: -1
Preamp Sensitivity: 100.000000
Incident Angle: 90.000000
Incident Power: -1.000000
Wavelength: 178.000000
Temperature: 181.500000
Pressure: 0.190000
95.000000	6579.810134	251.233804
94.750000	8047.770862	326.591708
94.500000	16954.813235	4170.432672
94.250000	44012.307613	6612.872394
94.000000	81686.028286	10873.383362
93.750000	132731.649554	7614.230126
93.500000	187883.539321	12103.620832
93.250000	259909.174687	15515.780520
93.000000	332918.125911	12826.027773
92.750000	401355.637466	14267.647502
92.500000	466627.608482	14913.266290
92.250000	541937.711601	19968.524958
92.000000	597752.596807	27559.147573
91.750000	681930.315546	31132.650986
91.500000	742412.514934	29580.869593
91.250000	819058.233580	31966.404582
91.000000	891175.681419	33035.865767
90.750000	967417.997211	33989.929641
90.500000	1000299.346346	34084.197833
90.250000	1024644.368990	36207.879589
90.000000	1021985.789867	39640.005578
89.750000	1020255.847718	41718.038678
89.500000	996694.770450	40325.021867
89.250000	955455.533037	41350.823546
89.000000	893012.707625	35550.109355
88.750000	823499.675395	33978.148305
88.500000	768100.821801	33960.549793
88.250000	700899.513906	27287.529042
88.000000	636417.833420	29301.507968
87.750000	576500.429072	25637.918675
87.500000	504432.749257	21553.123810
87.250000	452500.644810	19461.795455
87.000000	382056.419493	18869.214666
86.750000	309950.272647	16876.947480
86.500000	247550.517555	16229.692777
86.250000	182194.362350	12337.166472
86.000000	117979.928815	12497.562414
85.750000	51412.923440	5395.039472
85.500000	15990.920000	3082.594943
85.250000	7131.953091	294.697578
85.000000	5867.449510	226.126255
