Data Saved Successfully
Date and Time: 2018_08_29__10_45_22
Name: Old sample, 75 deg
Description: old sample, reflectance measurements; slit width at 0.59; using log scale, long time constant; 500 ms wait time, 50 avgs, using median instead of mean; rate uses updated calibration and deadtime correction
Substance: vacuum
Sample ID: 1
Preamp Sensitivity: 100.000000
Incident Angle: 75.000000
Incident Power: 989000.000000
Wavelength: 175.000000
Temperature: 300.000000
Pressure: 1.013000
85.000000	13111.658187	442.358136
84.500000	14800.436328	452.125432
84.000000	16222.137988	595.497919
83.500000	17598.906838	630.706106
83.000000	19078.305537	714.461975
82.500000	19725.778966	674.217985
82.000000	20605.223190	771.138108
81.500000	21883.783849	1053.384717
81.000000	22664.224718	1004.032330
80.500000	23749.540444	843.726946
80.000000	24905.526571	992.829204
79.500000	26322.712465	967.359604
79.000000	28211.641265	1148.104785
78.500000	30309.330022	1149.647048
78.000000	31571.155338	1519.652242
77.500000	33174.285139	1224.218686
77.000000	33597.061858	1157.699889
76.500000	33797.713775	1325.403000
76.000000	33001.832246	1300.232692
75.500000	31081.092275	1298.450131
75.000000	29086.901231	1319.735807
74.500000	26278.607628	1000.915618
74.000000	23692.115205	1062.856427
73.500000	20209.472986	771.411301
73.000000	17846.787541	763.849016
72.500000	15928.442759	644.731067
72.000000	14171.432665	627.032787
71.500000	12620.157789	484.784434
71.000000	11589.833269	545.493021
70.500000	10763.358117	370.785443
70.000000	9724.115097	392.177281
69.500000	9012.546874	362.529118
69.000000	8388.952057	321.306409
68.500000	7820.320086	275.373132
68.000000	7126.619143	191.775175
67.500000	6690.922515	265.577928
67.000000	6416.604174	249.052114
66.500000	5997.630561	234.908715
66.000000	5463.061917	194.095385
65.500000	5205.303172	213.888492
65.000000	4849.454898	173.640832
64.500000	4561.042190	158.593128
64.000000	4194.537159	144.760329
63.500000	4063.437974	164.454385
63.000000	3762.119392	185.854986
62.500000	3434.495914	117.895153
62.000000	3387.037829	132.784612
61.500000	3199.552531	121.728170
61.000000	2999.030161	89.688526
60.500000	2896.312900	106.435298
60.000000	2738.635773	85.035284
59.500000	2604.986075	69.651684
59.000000	2498.630458	127.205216
58.500000	2367.520306	94.323328
58.000000	2273.844335	69.022085
57.500000	2200.938739	95.837107
57.000000	2103.742417	64.307490
56.500000	2054.108472	79.364028
56.000000	1982.767695	62.789959
55.500000	1959.069914	76.784444
55.000000	1838.944052	57.181806
54.500000	1802.571686	43.828762
54.000000	1801.251853	62.179273
53.500000	1745.485274	76.414544
53.000000	1650.082239	42.741007
52.500000	1573.511707	77.335458
52.000000	1553.560503	39.693029
51.500000	1552.131034	70.007058
51.000000	1513.879447	33.908503
50.500000	1473.025487	64.161475
50.000000	1411.210495	70.235543
49.500000	1428.265340	54.441253
49.000000	1373.144905	48.236732
48.500000	1338.577944	26.054663
48.000000	1273.219177	60.371352
47.500000	1313.110559	31.029033
47.000000	1279.818921	52.654503
46.500000	1287.408626	35.741489
46.000000	1210.384559	37.065894
45.500000	1227.722339	31.044920
45.000000	1152.159305	58.883101
44.500000	1132.957246	37.556139
44.000000	1112.848819	53.359634
43.500000	1074.490467	47.052170
43.000000	1025.831745	31.191302
42.500000	1065.789908	35.108899
42.000000	987.375310	26.332934
41.500000	991.577704	22.511966
41.000000	946.865778	26.913760
40.500000	1018.856858	40.596672
40.000000	985.016245	48.773761
39.500000	987.375310	26.747298
39.000000	1016.974143	29.872895
38.500000	983.561038	28.090689
38.000000	993.594835	24.185584
37.500000	978.487469	31.607919
37.000000	1012.663855	35.076550
36.500000	976.144283	32.401343
36.000000	970.216876	41.290605
35.500000	985.010791	30.590994
35.000000	1014.723985	36.980733
34.500000	977.583079	26.789925
34.000000	983.375885	36.373930
33.500000	993.594835	44.434903
33.000000	1001.327455	34.156319
32.500000	998.006115	34.232572
32.000000	996.901458	23.766076
31.500000	994.332359	35.506094
31.000000	999.482746	36.407994
30.500000	1008.187628	15.926468
30.000000	947.914869	30.455027
29.500000	961.127214	21.149157
29.000000	959.000903	38.243695
28.500000	931.098178	20.795989
28.000000	908.856513	27.114109
27.500000	877.704350	23.924281
27.000000	865.161826	16.728298
26.500000	858.801149	22.572187
26.000000	848.405684	20.670568
25.500000	815.857578	27.887286
25.000000	786.882080	22.626234
24.500000	791.543112	13.692701
24.000000	757.811803	23.368712
23.500000	720.987748	24.137817
23.000000	707.551095	19.743420
22.500000	655.036490	12.716564
22.000000	691.037203	19.593358
21.500000	632.824935	10.702162
21.000000	663.920283	18.721484
20.500000	652.384492	12.566056
20.000000	632.243795	12.523092
19.500000	664.041553	26.998835
19.000000	651.060720	16.392839
18.500000	623.321299	20.229150
18.000000	593.909664	16.980937
17.500000	640.577403	16.642005
17.000000	638.100465	13.899179
16.500000	648.424816	24.374599
16.000000	636.569575	18.318115
15.500000	615.212089	15.107180
15.000000	637.863890	15.506567
14.500000	612.833188	15.268562
14.000000	651.183245	20.078778
13.500000	615.212089	31.218160
13.000000	648.783791	24.828897
12.500000	672.421958	34.818526
12.000000	660.135342	15.704109
11.500000	621.602188	15.806628
11.000000	653.107026	19.120666
10.500000	666.007004	18.089654
10.000000	640.577403	16.501615
9.500000	673.666111	26.735163
9.000000	636.805670	21.699221
8.500000	658.916179	12.467637
8.000000	649.380129	23.979814
7.500000	609.676740	11.927080
7.000000	653.107026	9.880804
6.500000	648.783791	10.940692
6.000000	650.700485	31.259517
5.500000	704.943916	20.143046
5.000000	701.441210	29.816523
4.500000	681.288861	13.505768
4.000000	662.818844	16.923499
3.500000	703.902958	25.120525
3.000000	710.557149	19.413411
2.500000	671.432750	9.934707
2.000000	705.466924	23.973911
1.500000	669.206794	23.026528
1.000000	655.036490	16.785860
0.500000	706.248256	36.066374
0.000000	694.361109	17.676195
